DTRM-Survival Jupyter/iPython
  INPUT FILENAME : 'sta08055700.mat.dat'
 OUTPUT FILENAME : 'sta08055700.out.dat'
  OUTPUT DENSITY : DMAP
            ROWS : 302
         COLUMNS : 197
            CMAN : 150.0
           FDEEP : 0.2
            NMAN : 4.0
           ALIFE : 1.0
              DX : 29.874
              DT : 1.0
            TMAX : 1440.0
              D1 : 1000.0
             DYT : 29.848
             DXT : 29.901
 NUMBER PARTICLES: 31775
 PRINT FREQUENCY : 100
      OUTLET ROW : 20
   OUTLET COLUMN : 9
OUTLET ELEVATION : 396.0
   MIN ELEVATION : 396.0
   MAX ELEVATION : 717.2
      MASK COUNT : 31775
 SUMMARY IN GRID COORDINATES 
    (X,Y) OUTLET : 283.803,612.4170000000003
     (XMIN,YMIN) : 14.937,14.937
     (XMAX,YMAX) : 5900.114999999975,9036.884999999955
 SUMMARY OF PARTICLE ARRAY CALCULATIONS 
            PARTICLE ARRAY LENGTH : 31775
            PARTICLE INPUT COUNT  : 31775
            OUTLET      (LOX,LOY) : 9.0,20.0
  OUTLET INDEX IN PARTICLE ARRAY  : 1169
  VELOCITY MAPS BUILT 
  PARTICLE MAPS BUILT 
 DIRECTION MAPS BUILT 
   MIN VX VALUE = : 0.0
   MIN VY VALUE = : 0.0
   MAX VX VALUE = : 21.67
   MAX VY VALUE = : 2472.135
 CUMULATIVE ARRIVAL TIME DISTRIBUTION 
 TIME  FRACTION  NUMBER
       0.000       0.000           0 
      10.989       0.003         100 
      16.244       0.006         200 
      19.852       0.009         300 
      22.285       0.013         400 
      24.387       0.016         500 
      26.245       0.019         600 
      27.884       0.022         700 
      29.777       0.025         800 
      31.421       0.028         900 
      32.912       0.031        1000 
      34.480       0.035        1100 
      35.808       0.038        1200 
      37.200       0.041        1300 
      38.522       0.044        1400 
      39.714       0.047        1500 
      40.782       0.050        1600 
      42.008       0.054        1700 
      43.099       0.057        1800 
      44.259       0.060        1900 
      45.218       0.063        2000 
      46.205       0.066        2100 
      47.169       0.069        2200 
      48.158       0.072        2300 
      48.998       0.076        2400 
      49.871       0.079        2500 
      50.625       0.082        2600 
      51.491       0.085        2700 
      52.205       0.088        2800 
      53.016       0.091        2900 
      53.669       0.094        3000 
      54.487       0.098        3100 
      55.199       0.101        3200 
      55.947       0.104        3300 
      56.739       0.107        3400 
      57.382       0.110        3500 
      57.983       0.113        3600 
      58.710       0.116        3700 
      59.496       0.120        3800 
      60.099       0.123        3900 
      60.676       0.126        4000 
      61.291       0.129        4100 
      61.827       0.132        4200 
      62.453       0.135        4300 
      62.999       0.138        4400 
      63.445       0.142        4500 
      63.898       0.145        4600 
      64.405       0.148        4700 
      64.821       0.151        4800 
      65.302       0.154        4900 
      65.797       0.157        5000 
      66.273       0.161        5100 
      66.707       0.164        5200 
      67.214       0.167        5300 
      67.705       0.170        5400 
      68.107       0.173        5500 
      68.464       0.176        5600 
      68.877       0.179        5700 
      69.253       0.183        5800 
      69.594       0.186        5900 
      70.026       0.189        6000 
      70.479       0.192        6100 
      70.819       0.195        6200 
      71.292       0.198        6300 
      71.707       0.201        6400 
      72.117       0.205        6500 
      72.578       0.208        6600 
      72.985       0.211        6700 
      73.393       0.214        6800 
      73.807       0.217        6900 
      74.196       0.220        7000 
      74.564       0.223        7100 
      74.928       0.227        7200 
      75.221       0.230        7300 
      75.676       0.233        7400 
      76.051       0.236        7500 
      76.420       0.239        7600 
      76.796       0.242        7700 
      77.167       0.245        7800 
      77.515       0.249        7900 
      77.830       0.252        8000 
      78.130       0.255        8100 
      78.488       0.258        8200 
      78.809       0.261        8300 
      79.117       0.264        8400 
      79.452       0.268        8500 
      79.828       0.271        8600 
      80.162       0.274        8700 
      80.577       0.277        8800 
      80.845       0.280        8900 
      81.173       0.283        9000 
      81.476       0.286        9100 
      81.788       0.290        9200 
      82.076       0.293        9300 
      82.418       0.296        9400 
      82.720       0.299        9500 
      82.991       0.302        9600 
      83.277       0.305        9700 
      83.636       0.308        9800 
      83.874       0.312        9900 
      84.164       0.315       10000 
      84.463       0.318       10100 
      84.754       0.321       10200 
      85.076       0.324       10300 
      85.432       0.327       10400 
      85.746       0.330       10500 
      86.068       0.334       10600 
      86.358       0.337       10700 
      86.633       0.340       10800 
      86.960       0.343       10900 
      87.247       0.346       11000 
      87.561       0.349       11100 
      87.860       0.352       11200 
      88.164       0.356       11300 
      88.416       0.359       11400 
      88.709       0.362       11500 
      89.035       0.365       11600 
      89.357       0.368       11700 
      89.644       0.371       11800 
      89.921       0.375       11900 
      90.156       0.378       12000 
      90.443       0.381       12100 
      90.735       0.384       12200 
      90.982       0.387       12300 
      91.218       0.390       12400 
      91.503       0.393       12500 
      91.755       0.397       12600 
      91.990       0.400       12700 
      92.236       0.403       12800 
      92.534       0.406       12900 
      92.800       0.409       13000 
      93.062       0.412       13100 
      93.390       0.415       13200 
      93.615       0.419       13300 
      93.852       0.422       13400 
      94.132       0.425       13500 
      94.394       0.428       13600 
      94.595       0.431       13700 
      94.832       0.434       13800 
      95.071       0.437       13900 
      95.311       0.441       14000 
      95.560       0.444       14100 
      95.808       0.447       14200 
      96.058       0.450       14300 
      96.312       0.453       14400 
      96.571       0.456       14500 
      96.815       0.459       14600 
      97.045       0.463       14700 
      97.264       0.466       14800 
      97.462       0.469       14900 
      97.675       0.472       15000 
      97.910       0.475       15100 
      98.131       0.478       15200 
      98.331       0.482       15300 
      98.556       0.485       15400 
      98.767       0.488       15500 
      98.970       0.491       15600 
      99.258       0.494       15700 
      99.519       0.497       15800 
      99.770       0.500       15900 
      99.965       0.504       16000 
     100.209       0.507       16100 
     100.475       0.510       16200 
     100.712       0.513       16300 
     100.956       0.516       16400 
     101.244       0.519       16500 
     101.500       0.522       16600 
     101.765       0.526       16700 
     101.975       0.529       16800 
     102.234       0.532       16900 
     102.494       0.535       17000 
     102.717       0.538       17100 
     102.972       0.541       17200 
     103.207       0.544       17300 
     103.475       0.548       17400 
     103.743       0.551       17500 
     104.050       0.554       17600 
     104.356       0.557       17700 
     104.556       0.560       17800 
     104.860       0.563       17900 
     105.118       0.566       18000 
     105.358       0.570       18100 
     105.639       0.573       18200 
     105.916       0.576       18300 
     106.211       0.579       18400 
     106.526       0.582       18500 
     106.788       0.585       18600 
     107.062       0.589       18700 
     107.350       0.592       18800 
     107.606       0.595       18900 
     107.854       0.598       19000 
     108.107       0.601       19100 
     108.338       0.604       19200 
     108.623       0.607       19300 
     108.893       0.611       19400 
     109.134       0.614       19500 
     109.484       0.617       19600 
     109.731       0.620       19700 
     110.036       0.623       19800 
     110.318       0.626       19900 
     110.603       0.629       20000 
     110.881       0.633       20100 
     111.187       0.636       20200 
     111.455       0.639       20300 
     111.721       0.642       20400 
     111.968       0.645       20500 
     112.274       0.648       20600 
     112.543       0.651       20700 
     112.801       0.655       20800 
     113.130       0.658       20900 
     113.384       0.661       21000 
     113.678       0.664       21100 
     114.009       0.667       21200 
     114.284       0.670       21300 
     114.613       0.673       21400 
     114.890       0.677       21500 
     115.199       0.680       21600 
     115.496       0.683       21700 
     115.802       0.686       21800 
     116.071       0.689       21900 
     116.343       0.692       22000 
     116.671       0.696       22100 
     116.999       0.699       22200 
     117.271       0.702       22300 
     117.638       0.705       22400 
     117.867       0.708       22500 
     118.219       0.711       22600 
     118.502       0.714       22700 
     118.831       0.718       22800 
     119.111       0.721       22900 
     119.452       0.724       23000 
     119.720       0.727       23100 
     120.041       0.730       23200 
     120.359       0.733       23300 
     120.675       0.736       23400 
     120.967       0.740       23500 
     121.335       0.743       23600 
     121.615       0.746       23700 
     121.942       0.749       23800 
     122.210       0.752       23900 
     122.522       0.755       24000 
     122.866       0.758       24100 
     123.196       0.762       24200 
     123.468       0.765       24300 
     123.844       0.768       24400 
     124.191       0.771       24500 
     124.565       0.774       24600 
     124.979       0.777       24700 
     125.318       0.780       24800 
     125.712       0.784       24900 
     126.075       0.787       25000 
     126.421       0.790       25100 
     126.780       0.793       25200 
     127.109       0.796       25300 
     127.551       0.799       25400 
     127.880       0.803       25500 
     128.301       0.806       25600 
     128.694       0.809       25700 
     129.152       0.812       25800 
     129.619       0.815       25900 
     130.095       0.818       26000 
     130.577       0.821       26100 
     131.079       0.825       26200 
     131.559       0.828       26300 
     132.017       0.831       26400 
     132.418       0.834       26500 
     132.847       0.837       26600 
     133.344       0.840       26700 
     133.917       0.843       26800 
     134.437       0.847       26900 
     134.995       0.850       27000 
     135.478       0.853       27100 
     136.025       0.856       27200 
     136.609       0.859       27300 
     137.158       0.862       27400 
     137.752       0.865       27500 
     138.394       0.869       27600 
     138.935       0.872       27700 
     139.510       0.875       27800 
     140.179       0.878       27900 
     140.838       0.881       28000 
     141.707       0.884       28100 
     142.561       0.887       28200 
     143.180       0.891       28300 
     143.878       0.894       28400 
     144.622       0.897       28500 
     145.387       0.900       28600 
     146.187       0.903       28700 
     147.026       0.906       28800 
     147.965       0.910       28900 
     148.860       0.913       29000 
     149.742       0.916       29100 
     150.668       0.919       29200 
     151.635       0.922       29300 
     152.672       0.925       29400 
     153.788       0.928       29500 
     154.891       0.932       29600 
     156.069       0.935       29700 
     157.029       0.938       29800 
     158.294       0.941       29900 
     159.590       0.944       30000 
     160.859       0.947       30100 
     162.342       0.950       30200 
     163.746       0.954       30300 
     165.269       0.957       30400 
     166.689       0.960       30500 
     168.392       0.963       30600 
     170.433       0.966       30700 
     172.304       0.969       30800 
     174.690       0.972       30900 
     177.240       0.976       31000 
     180.284       0.979       31100 
     183.827       0.982       31200 
     188.462       0.985       31300 
     193.273       0.988       31400 
     199.878       0.991       31500 
     208.703       0.994       31600 
     221.621       0.998       31700 